POSCAR written by ramannoodle
   1.00000000000000
     11.3768434220000003   0.0000000000000000   0.0000000000000000
     0.0000000000000000   11.3768434220000003   0.0000000000000000
     0.0000000000000000   0.0000000000000000   9.6045745740000008
   Ti  O
   36   72
Direct
  0.1694444477778614   0.1694444477778614   0.5032903428044995
  0.1694444477778614   0.5027777777778614   0.5032903428044995
  0.1694444477778614   0.8361110877778614   0.5032903428044995
  0.5027777777778614   0.1694444477778614   0.5032903428044995
  0.5027777777778614   0.5027777777778614   0.5032903428044995
  0.5027777777778614   0.8361110877778614   0.5032903428044995
  0.8361110877778614   0.1694444477778614   0.5032903428044995
  0.8361110877778614   0.5027777777778614   0.5032903428044995
  0.8361110877778614   0.8361110877778614   0.5032903428044995
  0.1694444477778614   0.0027777777778614   0.7532903428044995
  0.1694444477778614   0.3361111177778613   0.7532903428044995
  0.1694444477778614   0.6694444677778614   0.7532903428044995
  0.5027777777778614   0.0027777777778614   0.7532903428044995
  0.5027777777778614   0.3361111177778613   0.7532903428044995
  0.5027777777778614   0.6694444677778614   0.7532903428044995
  0.8361110877778614   0.0027777777778614   0.7532903428044995
  0.8361110877778614   0.3361111177778613   0.7532903428044995
  0.8361110877778614   0.6694444677778614   0.7532903428044995
  0.0027777777778614   0.0027777777778614   0.0032903428044995
  0.0027777777778614   0.3361111177778613   0.0032903428044995
  0.0027777777778614   0.6694444677778614   0.0032903428044995
  0.3361111177778613   0.0027777777778614   0.0032903428044995
  0.3361111177778613   0.3361111177778613   0.0032903428044995
  0.3361111177778613   0.6694444677778614   0.0032903428044995
  0.6694444677778614   0.0027777777778614   0.0032903428044995
  0.6694444677778614   0.3361111177778613   0.0032903428044995
  0.6694444677778614   0.6694444677778614   0.0032903428044995
  0.0027777777778614   0.1694444477778614   0.2532903428044995
  0.0027777777778614   0.5027777777778614   0.2532903428044995
  0.0027777777778614   0.8361110877778614   0.2532903428044995
  0.3361111177778613   0.1694444477778614   0.2532903428044995
  0.3361111177778613   0.5027777777778614   0.2532903428044995
  0.3361111177778613   0.8361110877778614   0.2532903428044995
  0.6694444677778614   0.1694444477778614   0.2532903428044995
  0.6694444677778614   0.5027777777778614   0.2532903428044995
  0.6694444677778614   0.8361110877778614   0.2532903428044995
  0.0027777777778614   0.1694444477778614   0.4611889428044995
  0.0027777777778614   0.5027777777778614   0.4611889428044995
  0.0027777777778614   0.8361110877778614   0.4611889428044995
  0.3361111177778613   0.1694444477778614   0.4611889428044995
  0.3361111177778613   0.5027777777778614   0.4611889428044995
  0.3361111177778613   0.8361110877778614   0.4611889428044995
  0.6694444677778614   0.1694444477778614   0.4611889428044995
  0.6694444677778614   0.5027777777778614   0.4611889428044995
  0.6694444677778614   0.8361110877778614   0.4611889428044995
  0.1694444477778614   0.1694444477778614   0.7111889428044995
  0.1694444477778614   0.5027777777778614   0.7111889428044995
  0.1694444477778614   0.8361110877778614   0.7111889428044995
  0.5027777777778614   0.1694444477778614   0.7111889428044995
  0.5027777777778614   0.5027777777778614   0.7111889428044995
  0.5027777777778614   0.8361110877778614   0.7111889428044995
  0.8361110877778614   0.1694444477778614   0.7111889428044995
  0.8361110877778614   0.5027777777778614   0.7111889428044995
  0.8361110877778614   0.8361110877778614   0.7111889428044995
  0.1694444477778614   0.0027777777778614   0.5453917428044994
  0.1694444477778614   0.3361111177778613   0.5453917428044994
  0.1694444477778614   0.6694444677778614   0.5453917428044994
  0.5027777777778614   0.0027777777778614   0.5453917428044994
  0.5027777777778614   0.3361111177778613   0.5453917428044994
  0.5027777777778614   0.6694444677778614   0.5453917428044994
  0.8361110877778614   0.0027777777778614   0.5453917428044994
  0.8361110877778614   0.3361111177778613   0.5453917428044994
  0.8361110877778614   0.6694444677778614   0.5453917428044994
  0.0027777777778614   0.0027777777778614   0.7953917428044994
  0.0027777777778614   0.3361111177778613   0.7953917428044994
  0.0027777777778614   0.6694444677778614   0.7953917428044994
  0.3361111177778613   0.0027777777778614   0.7953917428044994
  0.3361111177778613   0.3361111177778613   0.7953917428044994
  0.3361111177778613   0.6694444677778614   0.7953917428044994
  0.6694444677778614   0.0027777777778614   0.7953917428044994
  0.6694444677778614   0.3361111177778613   0.7953917428044994
  0.6694444677778614   0.6694444677778614   0.7953917428044994
  0.1694444477778614   0.0027777777778614   0.9611889428044995
  0.1694444477778614   0.3361111177778613   0.9611889428044995
  0.1694444477778614   0.6694444677778614   0.9611889428044995
  0.5027777777778614   0.0027777777778614   0.9611889428044995
  0.5027777777778614   0.3361111177778613   0.9611889428044995
  0.5027777777778614   0.6694444677778614   0.9611889428044995
  0.8361110877778614   0.0027777777778614   0.9611889428044995
  0.8361110877778614   0.3361111177778613   0.9611889428044995
  0.8361110877778614   0.6694444677778614   0.9611889428044995
  0.0027777777778614   0.0027777777778614   0.2111889428044995
  0.0027777777778614   0.3361111177778613   0.2111889428044995
  0.0027777777778614   0.6694444677778614   0.2111889428044995
  0.3361111177778613   0.0027777777778614   0.2111889428044995
  0.3361111177778613   0.3361111177778613   0.2111889428044995
  0.3361111177778613   0.6694444677778614   0.2111889428044995
  0.6694444677778614   0.0027777777778614   0.2111889428044995
  0.6694444677778614   0.3361111177778613   0.2111889428044995
  0.6694444677778614   0.6694444677778614   0.2111889428044995
  0.0027777777778614   0.1694444477778614   0.0453917428044995
  0.0027777777778614   0.5027777777778614   0.0453917428044995
  0.0027777777778614   0.8361110877778614   0.0453917428044995
  0.3361111177778613   0.1694444477778614   0.0453917428044995
  0.3361111177778613   0.5027777777778614   0.0453917428044995
  0.3361111177778613   0.8361110877778614   0.0453917428044995
  0.6694444677778614   0.1694444477778614   0.0453917428044995
  0.6694444677778614   0.5027777777778614   0.0453917428044995
  0.6694444677778614   0.8361110877778614   0.0453917428044995
  0.1694444477778614   0.1694444477778614   0.2953917428044995
  0.1694444477778614   0.5027777777778614   0.2953917428044995
  0.1694444477778614   0.8361110877778614   0.2953917428044995
  0.5027777777778614   0.1694444477778614   0.2953917428044995
  0.5027777777778614   0.5027777777778614   0.2953917428044995
  0.5027777777778614   0.8361110877778614   0.2953917428044995
  0.8361110877778614   0.1694444477778614   0.2953917428044995
  0.8361110877778614   0.5027777777778614   0.2953917428044995
  0.8361110877778614   0.8361110877778614   0.2953917428044995
